timestamp,open,high,low,close,volume,trade_count,vwap,weekly change,monthly change,yearly change,relative_vol,rsi,symbol
2022-02-16 05:00:00+00:00,114.25,115.076,113.1,114.7,260920,6457,114.38576,,,,1.0590362792045487,,ATR
2022-02-17 05:00:00+00:00,113.96,116.26,113.315,115.61,354255,7921,115.537263,,,,1.4378694507496834,,ATR
2022-02-18 05:00:00+00:00,116.28,121.52,114.42,118.44,452085,9597,118.798896,,,,1.8349471726360125,,ATR
2022-02-22 05:00:00+00:00,118.5,120.18,117.32,119.1,412757,9275,118.923005,,,,1.6753205484272262,,ATR
2022-02-23 05:00:00+00:00,119.74,120.305,117.6,117.69,321074,8396,118.346549,,,,1.3031926042822368,,ATR
2022-02-24 05:00:00+00:00,116.27,117.34,114.72,116.87,347943,7736,116.21472,0.018918918918918948,,,1.4122499620392008,,ATR
2022-02-25 05:00:00+00:00,117.16,121.6,116.82,120.97,248181,6569,120.53353,0.0463627713865582,,,1.0073305335323628,,ATR
2022-02-28 05:00:00+00:00,119.47,122.03,119.28,121.88,299573,6734,121.035531,0.029044241810199267,,,1.215923176721387,,ATR
2022-03-01 05:00:00+00:00,121.96,122.94,118.53,119.1,309756,8669,119.638349,0.0,,,1.2572544906533965,,ATR
2022-03-02 05:00:00+00:00,119.09,120.06,118.0,118.38,419579,9752,118.666078,0.0058628600560795,,,1.703010052860514,,ATR
2022-03-03 05:00:00+00:00,118.88,119.75,117.41,119.33,187237,5643,118.999372,0.021049028835458117,,,0.7599677135115057,,ATR
2022-03-04 05:00:00+00:00,118.05,120.39,117.69,120.19,197385,4950,119.363689,-0.006447879639580045,,,0.8011569675409698,,ATR
2022-03-07 05:00:00+00:00,119.31,120.28,116.45,116.52,317989,9089,117.958647,-0.04397768296685267,,,1.290671038586445,,ATR
2022-03-08 05:00:00+00:00,116.96,118.29,110.04,110.19,366172,9366,112.305803,-0.07481108312342566,,,1.4862388181392303,,ATR
2022-03-09 05:00:00+00:00,111.18,114.38,111.18,113.27,216082,6777,113.223101,-0.043166075350565936,,,0.87704536748075,47.61904761904761,ATR
2022-03-10 05:00:00+00:00,111.83,113.56,111.44,112.26,216844,5512,112.337157,-0.059247465012989164,,,0.8801382145018823,45.95456455639878,ATR
2022-03-11 05:00:00+00:00,113.3,113.72,112.25,112.3,228298,5541,112.799497,-0.06564606040435972,,,0.926628332323471,46.03501603461729,ATR
2022-03-14 04:00:00+00:00,112.82,115.91,112.77,114.52,164202,4667,114.791325,-0.01716443529007894,,,0.6664720033648065,50.44409695011357,ATR
2022-03-15 04:00:00+00:00,115.09,116.93,114.09,116.81,193085,6932,115.905088,0.060078047009710644,,,0.7837038937996714,54.56762234676956,ATR
2022-03-16 04:00:00+00:00,117.72,119.11,114.36,116.99,252967,6334,116.387935,0.03284188222830409,,,1.0267562104918637,54.885391820765285,ATR
2022-03-17 04:00:00+00:00,117.24,118.51,115.27,118.41,158627,6077,117.980109,0.05478353821485826,0.032345248474280774,,0.6438438903164952,57.41582828039702,ATR
2022-03-18 04:00:00+00:00,118.1,118.83,116.27,117.74,281234,4698,117.747045,0.048441674087266184,0.01842401176368824,,1.1414878466419287,55.82480475577968,ATR
2022-03-21 04:00:00+00:00,117.73,118.67,116.665,118.66,302356,6022,117.902415,0.03615089067411814,0.0018574805808848627,,1.2272189684009294,57.563726024674075,ATR
2022-03-22 04:00:00+00:00,119.78,120.46,117.36,117.67,291773,7947,118.224879,0.007362383357589319,-0.012006717044500403,,1.1842641127255433,55.052363213255774,ATR
2022-03-23 04:00:00+00:00,117.8,118.1,114.04,114.67,253732,6016,114.990826,-0.019830754765364556,-0.025660633868637928,,1.0298612340760713,48.19118208859282,ATR
2022-03-24 04:00:00+00:00,115.0,116.22,113.995,115.85,207534,4278,115.552459,-0.02161979562536953,-0.008727646102507092,,0.8423502804247923,50.78912407575436,ATR
2022-03-25 04:00:00+00:00,116.85,117.26,116.0,117.24,147901,4941,116.876878,-0.004246645150331241,-0.03083409109696622,,0.600308618467852,53.732331415872416,ATR
2022-03-28 04:00:00+00:00,117.43,117.5738,115.01,116.49,314059,10080,116.078219,-0.01828754424405865,-0.044223826714801406,,1.27471974095777,51.92769404566738,ATR
2022-03-29 04:00:00+00:00,117.51,119.59,117.51,119.32,184697,5175,118.955783,0.014022265658196531,0.0018471872376153442,,0.7496582234410644,57.700644934823174,ATR
2022-03-30 04:00:00+00:00,119.57,119.57,118.24,118.82,313127,9756,118.823074,0.03619080840673239,0.003716844061496749,,1.2709368886957026,56.4116826381022,ATR
2022-03-31 04:00:00+00:00,118.4,119.829,117.47,117.5,210876,5370,118.472731,0.014242555028053605,-0.015335623900108897,,0.8559149716907036,53.04288229947439,ATR
2022-04-01 04:00:00+00:00,118.15,119.64,117.29,119.02,399601,7656,118.539234,0.015182531559194912,-0.009734586904068587,,1.6219222604875703,56.28057065154746,ATR
2022-04-04 04:00:00+00:00,118.72,118.72,115.2,118.41,285766,8094,117.699019,0.01648210146793727,0.016220391349124563,,1.1598825745943855,54.65198544362999,ATR
2022-04-05 04:00:00+00:00,117.65,119.21,117.59,117.73,225066,6146,118.118218,-0.01332551123030501,0.06842726200199656,,0.9135101150369882,52.81717614376063,ATR
2022-04-06 04:00:00+00:00,117.26,118.92,116.35,118.34,192068,6763,118.138125,-0.004039723952196539,0.044760307230511165,,0.7795760389171364,54.299395694038246,ATR
2022-04-07 04:00:00+00:00,117.91,120.595,116.63,120.0,328301,7485,119.665589,0.02127659574468077,0.06894708711918751,,1.3325259447306934,58.15209622310902,ATR
2022-04-08 04:00:00+00:00,119.81,122.23,119.81,121.41,304440,7917,121.507105,0.020080658712821275,0.0811219946571684,,1.2356776208839215,61.14815715204861,ATR
2022-04-11 04:00:00+00:00,121.13,122.3,118.96,118.96,187007,5705,120.519297,0.004644877966387906,0.03877052043311213,,0.7590341770090642,53.923948616444896,ATR
2022-04-12 04:00:00+00:00,119.23,120.19,116.395,117.01,186580,6188,117.428789,-0.006115688439650047,0.0017121821761836298,,0.7573010461980096,48.96545347365163,ATR
2022-04-13 04:00:00+00:00,116.89,118.0,116.89,117.88,119692,4826,117.613223,-0.003887104951833753,0.007607487819471848,,0.48581239587057656,51.12481778868009,ATR
2022-04-14 04:00:00+00:00,117.42,118.7,116.96,117.4,162382,4877,117.740859,-0.021666666666666612,-0.008529684992821474,,0.659084888432443,49.87105075408558,ATR
2022-04-18 04:00:00+00:00,116.78,117.5359,113.58,114.01,136655,3969,114.613424,-0.06095049831150645,-0.03167997282147095,,0.5546627423528192,42.03131848756526,ATR
2022-04-19 04:00:00+00:00,114.57,117.635,113.51,117.23,221595,5460,116.637559,-0.01454270342972419,-0.01205123883364223,,0.8994218315588378,50.06155895072336,ATR
2022-04-20 04:00:00+00:00,117.98,119.75,117.3332,119.5,138775,4319,119.118218,0.021280232458764203,0.01555196736636355,,0.5632675135927152,54.813771836184266,ATR
2022-04-21 04:00:00+00:00,120.25,120.35,118.335,118.94,175321,4081,119.017455,0.008992195453003005,0.037237289613673896,,0.7116024049763172,53.46215309395264,ATR
2022-04-22 04:00:00+00:00,118.6,118.6,116.43,116.62,178906,4347,117.012664,-0.006643952299829614,0.006646525679758319,,0.7261533978513298,48.16348119227368,ATR
2022-04-25 04:00:00+00:00,116.5,116.5,112.175,115.4,378530,8280,114.504331,0.012191912990088483,-0.01569430228590918,,1.53639814030085,45.60384315279721,ATR
2022-04-26 04:00:00+00:00,114.37,115.35,110.44,110.58,293349,6495,111.266895,-0.05672609400324158,-0.050733968580994104,,1.1906608671944472,37.19372254346312,ATR
2022-04-27 04:00:00+00:00,110.94,112.99,110.57,111.1,201762,5968,111.727987,-0.07029288702928871,-0.0688903788132752,,0.8189225730678681,38.511183945471004,ATR
2022-04-28 04:00:00+00:00,111.18,112.24,109.55,112.1,288545,6747,111.340028,-0.057507987220447365,-0.05655613533075243,,1.1711621308564943,41.07120618738292,ATR
2022-04-29 04:00:00+00:00,112.52,116.4507,112.52,114.83,637814,11578,115.021467,-0.015348996741553766,-0.022723404255319157,,2.5887941337749885,47.497689103716446,ATR
2022-05-02 04:00:00+00:00,115.42,116.97,112.07,113.39,455473,8664,113.837693,-0.017417677642980967,-0.04730297429003527,,1.8486985712024122,44.72692606534,ATR
2022-05-03 04:00:00+00:00,112.99,115.365,112.64,113.83,224255,5989,114.138892,0.029390486525592285,-0.03867916561101259,,0.9102183841522922,45.76794313120336,ATR
2022-05-04 04:00:00+00:00,113.36,116.78,112.72,116.75,345999,6933,115.317754,0.050855085508551,-0.00832413148730149,,1.4043595491663905,52.20179003178897,ATR
2022-05-05 04:00:00+00:00,115.49,116.18,111.8725,112.8,174414,5960,113.210171,0.006244424620874156,-0.04681426398512767,,0.7079210240732108,44.509339334257476,ATR
2022-05-06 04:00:00+00:00,111.69,111.72,109.76,111.23,329330,7112,110.866724,-0.031350692327788865,-0.07308333333333328,,1.3367025058655297,41.86843142791447,ATR
2022-05-09 04:00:00+00:00,110.0,111.1,106.655,107.01,270763,7277,108.034222,-0.05626598465473143,-0.11860637509266114,,1.098987582654688,35.731505206742995,ATR
2022-05-10 04:00:00+00:00,107.56,108.63,103.94,104.54,360105,8263,104.988822,-0.0816129315646138,-0.12121721587088086,,1.461613748746566,32.70942295855737,ATR
2022-05-11 04:00:00+00:00,104.39,107.42,103.51,104.06,293675,7802,104.775787,-0.10869379014989289,-0.1106743013417657,,1.191984053715299,32.14052174738257,ATR
2022-05-12 04:00:00+00:00,103.72,106.66,103.25,106.45,384861,8065,105.78706,-0.05629432624113473,-0.09696301323379697,,1.562094747244143,37.92936159771432,ATR
2022-05-13 04:00:00+00:00,107.0,108.29,106.76,107.51,225425,6081,107.450422,-0.03344421469028136,-0.0842419080068143,,0.9149672437516686,40.359413620459904,ATR
2022-05-16 04:00:00+00:00,107.29,108.42,106.35,108.33,200461,6043,107.782505,0.012335295766750631,-0.04982019121129733,,0.8136420035475358,42.243172697407786,ATR
2022-05-17 04:00:00+00:00,110.13,110.39,108.22,108.96,308476,7741,109.260528,0.042280466806963624,-0.07054508231681322,,1.2520591570745914,43.71411069180285,ATR
2022-05-18 04:00:00+00:00,107.99,108.9,103.57,104.07,319528,8960,104.791627,9.60984047664315e-05,-0.12912133891213395,,1.2969176154440865,36.04144573817996,ATR
2022-05-19 04:00:00+00:00,103.39,104.6,102.26,103.49,327163,9265,103.614286,-0.02780648191639279,-0.1298974272742559,,1.327906968470787,35.25112854601408,ATR
2022-05-20 04:00:00+00:00,104.98,105.295,97.19,99.72,732953,32045,99.386015,-0.07245837596502658,-0.14491510890070314,,2.9749494785827517,30.56025018707393,ATR
2022-05-23 04:00:00+00:00,100.95,104.59,99.665,104.22,541994,12732,102.790927,-0.03793962891165881,-0.09688041594454078,,2.199874709149127,40.70327924094298,ATR
2022-05-24 04:00:00+00:00,104.5,105.615,102.82,104.95,564165,12005,104.695664,-0.03680249632892796,-0.050913365888949125,,2.289863569130133,42.17878783625214,ATR
2022-05-25 04:00:00+00:00,103.48,105.27,102.48,104.45,487350,9039,104.263187,0.0036513884885174264,-0.05985598559855976,,1.978082671586451,41.41857010228769,ATR
2022-05-26 04:00:00+00:00,105.7,106.9518,105.28,106.53,187769,4794,106.502333,0.02937481882307469,-0.04968777876895625,,0.7621270240301966,45.795384999448316,ATR
2022-05-27 04:00:00+00:00,106.96,108.93,106.96,108.89,176684,5695,108.315766,0.09195748094665057,-0.05172864234085173,,0.7171346234668728,50.329859382879626,ATR
2022-05-31 04:00:00+00:00,108.08,109.43,106.35,107.09,301610,6884,107.16083,0.02753790059489547,-0.05556045506658436,,1.224191063049532,47.09391764142826,ATR
2022-06-01 04:00:00+00:00,107.49,107.915,105.63,107.25,310071,8062,106.965108,0.021915197713196832,-0.05780549942897306,,1.2585330297763053,47.41754705029331,ATR
2022-06-02 04:00:00+00:00,107.6,110.0283,106.83,109.83,143643,5781,109.282479,0.05150789851603643,-0.059271948608137115,,0.5830260166096083,52.46676539831457,ATR
2022-06-03 04:00:00+00:00,108.72,109.7598,108.235,108.8,130978,5288,109.094843,0.021308551581713964,-0.03546099290780147,,0.531620626159947,50.38658759037712,ATR
2022-06-06 04:00:00+00:00,109.59,110.805,108.33,109.25,204983,5510,109.172628,0.0033060887133804506,-0.017800952980311147,,0.8319961429564081,51.29513682811363,ATR
2022-06-07 04:00:00+00:00,108.64,110.34,108.4,110.18,131612,4445,109.809378,0.028854234755812946,0.02962339968227279,,0.5341939398231988,53.20247361660508,ATR
2022-06-08 04:00:00+00:00,108.96,109.385,107.26,107.71,156653,5199,108.063952,0.004289044289044197,0.03032332121675907,,0.6358317118129317,47.84355470511199,ATR
2022-06-09 04:00:00+00:00,106.77,107.7,105.8,105.83,192340,6320,106.571716,-0.036419921697168345,0.017009417643667035,,0.7806800473026325,44.19466461183807,ATR
2022-06-10 04:00:00+00:00,103.58,105.89,103.13,105.2,262783,7004,105.087809,-0.03308823529411764,-0.011742602160638826,,1.0665979248743251,43.01085250559767,ATR
2022-06-13 04:00:00+00:00,102.87,103.23,101.05,102.01,244412,6896,102.109179,-0.0662700228832952,-0.05115803181099432,,0.9920327114553968,37.529138797422796,ATR
2022-06-14 04:00:00+00:00,101.61,102.28,98.39,99.52,226988,6982,99.637496,-0.09675077146487576,-0.0813255792485923,,0.9213112331139126,33.89752515820255,ATR
2022-06-15 04:00:00+00:00,100.3,101.24,98.54,100.37,279931,5603,99.898485,-0.06814594745149005,-0.07883627019089567,,1.1361991594128795,36.168288078963585,ATR
2022-06-16 04:00:00+00:00,98.89,98.89,94.03,94.77,616634,12372,95.413087,-0.10450722857412831,-0.0893629287979244,,2.502827598463198,29.080513061642055,ATR
2022-06-17 04:00:00+00:00,94.49,98.456,94.48,97.5,457524,7657,96.939983,-0.07319391634980987,-0.057879988404676785,,1.8570232814915757,35.69624096910094,ATR
2022-06-21 04:00:00+00:00,97.98,98.7,97.09,97.19,235374,5841,97.49401,-0.04725026958141365,-0.0253710389089451,,0.9553487857638029,35.29362403688004,ATR
2022-06-22 04:00:00+00:00,96.37,98.84,96.2376,98.46,226579,6426,98.357586,-0.010651125401929251,-0.05526770293609673,,0.9196511616813101,38.36089797381626,ATR
2022-06-23 04:00:00+00:00,98.62,99.32,97.17,98.93,150163,5295,98.384185,-0.014346916409285648,-0.05736064792758455,,0.6094897470266466,39.503808784442946,ATR
2022-06-24 04:00:00+00:00,100.05,102.65,99.6668,102.62,322001,6742,102.299489,0.08283211986915706,-0.01752034466251795,,1.3069551622725122,47.70259184191985,ATR
2022-06-27 04:00:00+00:00,102.62,104.15,101.99,103.57,184274,6240,103.550595,0.062256410256410266,-0.027785600300384905,,0.7479413280474436,49.59652128685348,ATR
2022-06-28 04:00:00+00:00,104.22,104.37,101.98,102.7,278156,7307,102.665938,0.05669307541928181,-0.05684635871062538,,1.128994692926646,47.88621279530101,ATR
2022-06-29 04:00:00+00:00,102.48,103.89,101.3394,103.39,218915,6318,103.235145,0.05007109486085737,-0.03455037818657203,,0.8885441018782146,49.3772333618676,ATR
2022-06-30 04:00:00+00:00,102.33,103.5,101.37,103.21,201753,5132,102.951068,0.043262913170928785,-0.03766899766899767,,0.8188860433786421,48.98351196621893,ATR
2022-07-01 04:00:00+00:00,103.34,104.67,102.16,104.49,258693,7217,103.757783,0.01822256870005834,-0.04862059546571973,,1.0499972105482995,51.91949430085641,ATR
2022-07-05 04:00:00+00:00,103.34,103.34,100.97,102.92,227967,6580,102.171399,-0.006275948633774231,-0.05404411764705874,,0.9252848515308268,48.251504612229596,ATR
2022-07-06 04:00:00+00:00,103.53,103.55,101.51,102.64,284444,8049,102.524585,-0.0005842259006816342,-0.06050343249427914,,1.1545167691325258,47.605555432208426,ATR
2022-07-07 04:00:00+00:00,102.45,103.3,101.85,103.11,219974,6885,102.752046,-0.0027081922816519777,-0.06416772554002548,,0.8928424286438041,48.84353235672889,ATR
2022-07-08 04:00:00+00:00,102.73,103.0282,100.0,100.01,206207,5272,100.577054,-0.031004747601976468,-0.07148825550088189,,0.8369641806911404,41.82409392208901,ATR
2022-07-11 04:00:00+00:00,99.81,100.1226,98.47,99.55,185989,5881,99.468518,-0.047277251411618315,-0.05934045166776902,,0.7549022632721708,40.88514563268924,ATR
2022-07-12 04:00:00+00:00,99.47,101.85,99.22,100.51,283388,6606,100.69128,-0.023416245627671972,-0.044581749049429686,,1.1502306189300116,43.72458080309801,ATR
2022-07-13 04:00:00+00:00,99.73,101.31,99.51,100.67,200024,5644,100.697324,-0.019193296960249406,-0.013135967062052778,,0.8118682841928968,44.205596671719896,ATR
2022-07-14 04:00:00+00:00,99.58,99.91,98.34,99.3,198071,4728,99.206259,-0.03695082921152171,-0.002210610932475876,,0.8039413416308606,40.97595033255407,ATR
2022-07-15 04:00:00+00:00,100.81,100.81,99.21,100.01,194754,5197,99.981509,0.0,-0.0035867291023213843,,0.7904781217239103,43.28839891150713,ATR
2022-07-18 04:00:00+00:00,100.57,100.95,97.7,98.1,179112,5003,98.889759,-0.014565544952285348,0.03513770180436837,,0.7269895218491688,38.87591251966203,ATR
2022-07-19 04:00:00+00:00,98.55,101.09,98.55,101.03,635124,8854,100.194459,0.005173614565714857,0.03620512820512811,,2.577875815550781,47.68545310393157,ATR
2022-07-20 04:00:00+00:00,100.67,102.48,100.66,101.82,456887,8425,101.769121,0.011423462799244888,0.047638645951229464,,1.8544377912652485,49.78682402251671,ATR
2022-07-21 04:00:00+00:00,101.91,103.595,101.58,103.48,136845,4180,103.185189,0.04209466263846928,0.05098517164330696,,0.5554339246809231,53.97071322569796,ATR
2022-07-22 04:00:00+00:00,103.61,103.9837,102.33,103.6,213060,5705,103.253313,0.03589641035896407,0.04720509451127053,,0.8647795096095399,54.26736472854057,ATR
2022-07-25 04:00:00+00:00,103.72,104.51,102.91,103.92,266226,5937,103.87613,0.05932721712538225,0.012668095887741204,,1.080572560430439,55.09841518573077,ATR
2022-07-26 04:00:00+00:00,103.11,103.88,101.88,103.83,261603,6069,103.326502,0.027714540235573626,0.002510379453509737,,1.0618084767313642,54.79681355560453,ATR
2022-07-27 04:00:00+00:00,104.24,106.54,103.64,106.03,227299,6358,105.31872,0.041347475937929756,0.0324245374878287,,0.9225735368193879,60.490126670214025,ATR
2022-07-28 04:00:00+00:00,106.08,107.82,105.15,107.82,249802,6824,106.736008,0.04194047158871261,0.042847470741851135,,1.0139099364473965,64.4170547324522,ATR
2022-07-29 04:00:00+00:00,107.17,109.49,106.385,107.76,423574,7162,108.082554,0.04015444015444025,0.044084875496560594,,1.7192251760224877,64.18676440634036,ATR
2022-08-01 04:00:00+00:00,106.3,108.65,105.614,108.2,273618,7498,107.945643,0.0411855273287145,0.035505790027754,,1.1105756118480385,65.17012512142963,ATR
2022-08-02 04:00:00+00:00,107.86,108.04,105.83,106.59,209113,6677,106.618532,0.026581912741982183,0.03565876408861257,,0.8487592114567714,58.80718853969531,ATR
2022-08-03 04:00:00+00:00,107.33,108.82,106.44,107.64,259086,8733,107.941297,0.015184381778741818,0.04871395167575998,,1.051592340311167,61.4506569654021,ATR
2022-08-04 04:00:00+00:00,107.2,107.22,105.855,106.44,292393,7129,106.383927,-0.012799109627156358,0.03229560663369213,,1.1867806024277772,56.95242790799052,ATR
2022-08-05 04:00:00+00:00,105.67,106.67,105.09,105.65,174338,6035,105.634071,-0.019580549368968025,0.056394360563943646,,0.7076125511419692,54.14256955012391,ATR
2022-08-08 04:00:00+00:00,106.13,108.0,106.006,107.27,216828,6362,107.387004,-0.008595194085027735,0.07754897036664987,,0.8800732728321473,58.64804697129009,ATR
2022-08-09 04:00:00+00:00,107.76,108.0,106.49,107.27,248244,6695,107.179609,0.006379585326953707,0.06725698935429292,,1.0075862413569445,58.64804697129008,ATR
2022-08-10 04:00:00+00:00,109.23,110.74,108.045,109.77,152204,4810,109.959438,0.01978818283166106,0.09039435780272176,,0.6177738687722257,64.83208417496202,ATR
2022-08-11 04:00:00+00:00,110.64,111.29,109.55,109.63,170193,4975,110.110608,0.0299699361142427,0.10402819738167168,,0.6907885998262293,64.25260277168219,ATR
2022-08-12 04:00:00+00:00,110.52,111.15,110.135,111.08,199678,5456,110.729476,0.05139611926171317,0.11068893110688927,,0.810463920584876,67.49335832466724,ATR
2022-08-15 04:00:00+00:00,110.68,112.425,110.68,111.91,146072,4289,111.922136,0.04325533700009321,0.14077471967380228,,0.5928849738462626,69.21384784853338,ATR
2022-08-16 04:00:00+00:00,111.16,112.26,110.71,112.07,187625,5341,111.815686,0.0447469003449239,0.10927447292883286,,0.761542549002581,69.5484402275887,ATR
2022-08-17 04:00:00+00:00,111.0,111.47,110.05,111.03,171368,4999,110.934893,0.011478546050833538,0.09045374189746624,,0.695557753697398,64.63141603969157,ATR
2022-08-18 04:00:00+00:00,110.94,111.14,109.9717,111.03,196987,4871,110.810918,0.012770227127611111,0.07296095863935048,,0.7995415435063101,64.63141603969159,ATR
2022-08-19 04:00:00+00:00,111.17,111.2599,109.55,110.16,252908,6382,110.244275,-0.008282319049333853,0.06332046332046337,,1.0265167380847156,60.48281004403216,ATR
2022-08-22 04:00:00+00:00,109.17,109.31,107.75,107.92,178207,5887,108.210424,-0.035653650254668934,0.03849114703618173,,0.7233162586547792,51.34449984152152,ATR
2022-08-23 04:00:00+00:00,107.88,108.44,106.01,106.89,177775,6337,106.813787,-0.046221111805121784,0.029471251083501793,,0.7215628335719325,47.770399822660956,ATR
2022-08-24 04:00:00+00:00,107.37,108.065,106.72,107.45,182169,5268,107.436737,-0.032243537782581266,0.013392436102989791,,0.7393974396229244,49.815786315071065,ATR
2022-08-25 04:00:00+00:00,107.54,108.97,107.54,108.97,131997,4353,108.409237,-0.018553544087183682,0.010665924689297057,,0.5357565987511989,54.970409513460304,ATR
2022-08-26 04:00:00+00:00,109.55,109.55,104.17,104.41,151731,5959,105.290074,-0.05219680464778509,-0.031087602078693433,,0.6158540306606829,41.27386821241558,ATR
2022-08-29 04:00:00+00:00,103.97,104.47,102.79,104.0,146592,4757,103.709278,-0.036323202372127494,-0.038817005545286554,,0.5949955781126521,40.30155226174451,ATR
2022-08-30 04:00:00+00:00,104.44,104.665,102.72,104.05,147350,4201,103.802178,-0.026569370380765345,-0.023829627544797893,,0.5980721897163508,40.485682250889326,ATR
2022-08-31 04:00:00+00:00,104.38,104.76,102.75,102.81,178858,4576,103.062506,-0.04318287575616564,-0.04487179487179482,,0.7259585728421246,37.40447168885295,ATR
2022-09-01 04:00:00+00:00,102.36,102.8695,101.33,102.62,211759,5783,102.333181,-0.05827291915206012,-0.035888763622698217,,0.8594989400892075,36.94055506874766,ATR
2022-09-02 04:00:00+00:00,103.34,104.18,100.72,101.43,204432,5754,101.970598,-0.028541327459055577,-0.03994320870799806,,0.8297597142049068,34.08883670999791,ATR
2022-09-06 04:00:00+00:00,101.26,101.88,99.81,100.33,151809,5939,100.396616,-0.035288461538461546,-0.06469656008203595,,0.6161706213006413,31.656121211471138,ATR
2022-09-07 04:00:00+00:00,100.64,103.63,100.62,103.24,163412,5735,102.386754,-0.00778471888515142,-0.037568751747925844,,0.6632655084216377,43.20355059383262,ATR
2022-09-08 04:00:00+00:00,102.26,105.015,102.13,104.89,136237,4892,104.458441,0.020231494990759602,-0.044456591054022,,0.5529661412309907,48.51532149708938,ATR
2022-09-09 04:00:00+00:00,105.68,106.82,104.68,106.41,196826,4524,106.263718,0.036932371857337776,-0.029371522393505378,,0.798888067954601,52.88658568184936,ATR
2022-09-12 04:00:00+00:00,107.18,108.27,106.74,107.11,151654,5021,107.305085,0.05599921127871421,-0.03574000720201653,,0.6155414988750829,54.790291729425824,ATR
2022-09-13 04:00:00+00:00,105.16,105.745,103.98,104.02,267407,6133,104.819972,0.036778630519286315,-0.07050308283442053,,1.0853660674277585,45.961613310364655,ATR
2022-09-14 04:00:00+00:00,103.81,104.31,102.45,103.58,247731,7297,103.36865,0.0032932971716388426,-0.0757562237887035,,1.005504049071064,44.85329298254215,ATR
2022-09-15 04:00:00+00:00,103.25,105.4,103.22,105.2,418067,10562,104.940935,0.0029554771665554203,-0.05250833108168962,,1.6968730650705506,49.66588951373527,ATR
2022-09-16 04:00:00+00:00,104.33,104.33,101.4,102.64,576944,9394,102.70382,-0.03542900103373736,-0.07556516256867518,,2.341731668976656,43.243581131835015,ATR
2022-09-19 04:00:00+00:00,101.85,104.55,101.84,104.53,191234,6569,103.860995,-0.024087386798618216,-0.051107480029048635,,0.7761909543821963,48.53477125558309,ATR
2022-09-20 04:00:00+00:00,103.45,103.45,100.69,101.18,155116,4482,101.421816,-0.027302441838107927,-0.062453669384729404,,0.6295932526640072,41.20262737516701,ATR
2022-09-21 04:00:00+00:00,101.79,102.27,99.63,99.67,170330,5753,100.770453,-0.03774860011585246,-0.06754607540462154,,0.6913446628733357,38.387580956869726,ATR
2022-09-22 04:00:00+00:00,99.14,99.14,97.27,98.12,196844,5952,97.996659,-0.06730038022813689,-0.08683108422522101,,0.7989611273330529,35.69189272282361,ATR
2022-09-23 04:00:00+00:00,96.93,98.31,96.93,98.08,272577,8819,97.667014,-0.044427123928293066,-0.09993576213636779,,1.1063503444609009,35.62237192811663,ATR
2022-09-26 04:00:00+00:00,97.5,98.45,96.43,97.41,360693,9138,97.404059,-0.06811441691380471,-0.0670433866487884,,1.4640003551093295,34.4132493657501,ATR
2022-09-27 04:00:00+00:00,97.99,98.8,95.23,96.06,235143,7812,96.197265,-0.05060288594583917,-0.07634615384615384,,0.9544111904070028,32.052483961430454,ATR
2022-09-28 04:00:00+00:00,96.75,98.5,96.0508,98.24,235189,7757,97.719586,-0.0143473462426007,-0.0558385391638635,,0.9545978977074911,39.294546443679245,ATR
2022-09-29 04:00:00+00:00,97.22,97.26,96.27,96.77,205330,6508,96.759796,-0.01375866286180194,-0.058749148915475224,,0.8334045654187873,36.471682143378246,ATR
2022-09-30 04:00:00+00:00,96.12,97.76,94.87,95.03,468386,9713,96.137147,-0.031097063621533416,-0.07396219060611975,,1.901110557532967,33.41199690966265,ATR
2022-10-03 04:00:00+00:00,96.46,98.02,95.66,97.44,273356,8168,97.270866,0.0003079765937787915,-0.03933747412008293,,1.1095121920061268,40.817684492336205,ATR
2022-10-04 04:00:00+00:00,99.09,99.83,98.51,99.23,260902,8261,99.101749,0.03300020820320637,-0.010963819395993113,,1.0589632198260968,45.65239503452254,ATR
2022-10-05 04:00:00+00:00,98.09,99.48,97.03,98.18,200269,6192,98.155164,-0.0006107491856676139,-0.04901201084850826,,0.812862703510715,43.412075205213895,ATR
2022-10-06 04:00:00+00:00,97.66,98.2,96.32,97.74,200458,7185,97.423881,0.010023767696600183,-0.06816665077700457,,0.8136298269844604,42.47150298614207,ATR
2022-10-07 04:00:00+00:00,96.93,96.93,93.6,93.98,118092,5716,94.177054,-0.01104914237609178,-0.11681232966826416,,0.4793182288970702,35.410945745581024,ATR
2022-10-10 04:00:00+00:00,94.39,95.47,93.91,94.37,174039,5449,94.571252,-0.03150656814449915,-0.11894314256371952,,0.7063989536887952,36.588473098999756,ATR
2022-10-11 04:00:00+00:00,93.8,95.65,93.303,94.74,366392,7153,94.797105,-0.045248412778393754,-0.08921361276677564,,1.4871317660980876,37.748016668735154,ATR
2022-10-12 04:00:00+00:00,94.76,94.76,93.27,93.37,145827,5005,93.678138,-0.048991647993481435,-0.09857115273218764,,0.5918905545284444,35.18264180928517,ATR
2022-10-13 04:00:00+00:00,91.07,95.025,90.23,94.56,232257,8183,93.584839,-0.03253529772866781,-0.10114068441064639,,0.9426973367285407,39.056931501434505,ATR
2022-10-14 04:00:00+00:00,95.4,95.92,94.11,95.08,313884,7697,94.978342,0.011704618003830491,-0.07365549493374901,,1.2740094414450427,40.72425119339401,ATR
2022-10-17 04:00:00+00:00,96.02,97.365,96.0178,97.32,343815,9758,97.072159,0.03125993430115481,-0.06897541375681626,,1.3954950112475544,47.40013200690267,ATR
2022-10-18 04:00:00+00:00,99.25,99.98,98.1,99.28,280506,7767,98.998539,0.047920624868059924,-0.018778414706463797,,1.1385330006689833,52.446792379299644,ATR
2022-10-19 04:00:00+00:00,98.71,99.21,97.59,98.21,357422,9042,98.337275,0.05183677840848233,-0.014648339520417442,,1.4507238425028675,49.646395793362394,ATR
2022-10-20 04:00:00+00:00,98.08,98.7,95.43,96.07,184236,5734,96.375396,0.015968697123519338,-0.0208927843456993,,0.7477870915818229,44.52573102656315,ATR
2022-10-21 04:00:00+00:00,95.56,97.915,94.53,97.52,174923,5039,97.133682,0.025662599915860396,-0.005709624796084833,,0.7099869809416575,48.408617540032,ATR
2022-10-24 04:00:00+00:00,97.9,98.8,97.27,97.89,158259,4278,97.960073,0.005856966707768363,0.004927625500461996,,0.6423502319125888,49.38222647996867,ATR
2022-10-25 04:00:00+00:00,96.47,99.43,95.965,99.21,292238,9294,98.707902,-0.0007050765511684709,0.032792004996876845,,1.1861514800022186,52.80413377401951,ATR
2022-10-26 04:00:00+00:00,99.85,101.0466,98.96,99.09,271691,7006,99.77272,0.008960390998880019,0.008652280130293288,,1.1027541994993217,52.45694935239227,ATR
2022-10-27 04:00:00+00:00,99.11,100.64,98.87,99.09,214305,6539,99.449416,0.031435411678984115,0.023974372222796303,,0.8698327832857995,52.45694935239227,ATR
2022-10-28 04:00:00+00:00,101.95,104.115,99.22,101.13,444451,12378,101.780392,0.037018047579983504,0.0641902557087235,,1.8039618784636704,57.91277949294512,ATR
2022-10-31 04:00:00+00:00,99.96,100.6,99.1,99.15,371928,7252,99.430494,0.012871590560833646,0.017549261083743994,,1.5096015838264194,51.71023340778377,ATR
2022-11-01 04:00:00+00:00,99.6,99.6,96.88,97.22,300896,8015,97.68238,-0.020058461848603937,-0.02025597097651921,,1.2212930410376048,46.484139724239526,ATR
2022-11-02 04:00:00+00:00,97.19,97.75,94.57,94.76,266001,7187,95.91048,-0.04369764860228076,-0.034833978407007526,,1.0796593181997898,40.8211198170928,ATR
2022-11-03 04:00:00+00:00,94.28,95.02,92.55,94.71,277805,7135,94.348155,-0.044202240387526626,-0.031000613873542027,,1.127570035046833,40.71255447039698,ATR
2022-11-04 04:00:00+00:00,96.44,98.78,96.23,98.77,207484,5699,97.918407,-0.02333629981212304,0.05096829112577139,,0.8421473377068702,51.89918839386447,ATR
2022-11-07 05:00:00+00:00,99.19,100.52,97.98,100.49,180634,6427,99.702822,0.01351487644982341,0.0648511179400233,,0.7331670981827167,55.7117130953349,ATR
2022-11-08 05:00:00+00:00,101.0,101.76,100.13,100.35,152002,5542,100.813787,0.03219502160049359,0.05921469284357195,,0.6169539801918205,55.3273124494791,ATR
2022-11-09 05:00:00+00:00,100.23,100.88,98.55,99.12,164523,4941,99.345609,0.04601097509497687,0.061582949555531785,,0.6677748956138662,51.93673258203347,ATR
2022-11-10 05:00:00+00:00,102.83,103.2517,101.04,102.33,263123,7974,102.096244,0.08045612923661705,0.08217005076142136,,1.0679779353561951,58.99857412905112,ATR
2022-11-11 05:00:00+00:00,102.84,105.075,101.46,104.25,290861,9003,103.965236,0.055482433937430464,0.09644509886411434,,1.1805624375506447,62.543541702993366,ATR
2022-11-14 05:00:00+00:00,103.61,105.27,103.61,104.4,238009,7682,104.547967,0.03890934421335457,0.07274969173859436,,0.9660438669982961,62.814041535508835,ATR
2022-11-15 05:00:00+00:00,105.83,107.01,104.28,104.69,269174,8436,105.334523,0.04324862979571509,0.05449234488315868,,1.0925380630791246,63.364886337851246,ATR
2022-11-16 05:00:00+00:00,104.86,105.89,104.695,104.92,137935,5628,105.186371,0.058514931396287384,0.06832298136645965,,0.5598580759316243,63.82260861078234,ATR
2022-11-17 05:00:00+00:00,103.71,105.07,103.71,104.61,161822,5772,104.543238,0.022280856053943143,0.0888935151452066,,0.6568119299917158,62.68578749990371,ATR
2022-11-18 05:00:00+00:00,106.11,106.93,104.61,106.04,212282,7360,105.767994,0.017170263788968798,0.087366694011485,,0.8616217209186724,65.71917485944077,ATR
2022-11-21 05:00:00+00:00,106.1,106.7,104.93,105.14,192866,6062,105.469052,0.007088122605363845,0.07406272346511389,,0.7828150046951727,62.2872040579148,ATR
2022-11-22 05:00:00+00:00,105.24,106.655,105.24,106.0,282571,9486,105.854445,0.012513134014710214,0.06844068138292525,,1.146914534919165,64.21050682219088,ATR
2022-11-23 05:00:00+00:00,105.99,106.78,105.58,106.19,200232,6423,106.296391,0.012104460541364714,0.07165203350489446,,0.8127125258994526,64.63956516854692,ATR
2022-11-25 05:00:00+00:00,106.55,106.5514,105.56,105.91,114714,3587,106.096691,0.012427110218908188,0.06882631950751827,,0.46560741887425494,63.43268809851435,ATR
2022-11-28 05:00:00+00:00,105.04,105.49,103.24,103.5,207795,6799,103.851488,-0.023953225198038552,0.023435182438445556,,0.8434096414123455,54.074333821819145,ATR
2022-11-29 05:00:00+00:00,103.0,104.1,102.93,103.31,180930,6167,103.331202,-0.017405364276203095,0.041956631366616204,,0.7343685190728154,53.40538535750527,ATR
2022-11-30 05:00:00+00:00,102.89,106.18,101.5,106.14,295722,7396,105.077342,0.0013207547169811207,0.09175066858671066,,1.2002925285870287,61.12045980785783,ATR
2022-12-01 05:00:00+00:00,106.78,107.78,106.505,107.09,156211,5987,107.020729,0.008475374329032892,0.1301181933305191,,0.6340376981865007,63.316293575442494,ATR
2022-12-02 05:00:00+00:00,106.26,108.55,106.1,108.05,167229,6133,107.741372,0.02020583514304608,0.14085101889979934,,0.6787581555078088,65.44041421543594,ATR
2022-12-05 05:00:00+00:00,106.86,106.93,105.68,106.7,153792,5456,106.634519,0.03091787439613536,0.08028753670142774,,0.6242193294934307,60.16454718808588,ATR
2022-12-06 05:00:00+00:00,106.55,107.08,105.37,107.0,247482,6544,106.415043,0.03571774271609707,0.06478256542939609,,1.004493394335812,60.91858010479784,ATR
2022-12-07 05:00:00+00:00,106.73,108.16,106.202,106.3,152831,5501,106.78642,0.0015074429998116479,0.059292476332835076,,0.6203187704549685,58.15258723038726,ATR
2022-12-08 05:00:00+00:00,106.45,107.94,106.45,107.93,190762,5585,107.596245,0.007843869642356838,0.08888216303470542,,0.7742751751250119,62.430314498170546,ATR
2022-12-09 05:00:00+00:00,107.83,108.98,107.65,108.06,316341,9719,108.290352,9.254974548822403e-05,0.055995309293462414,,1.2839820466037335,62.757298188097664,ATR
2022-12-12 05:00:00+00:00,108.46,108.78,107.49,108.08,208544,6457,108.134071,0.012933458294283051,0.036738609112709764,,0.8464497233268181,62.810924168313356,ATR
2022-12-13 05:00:00+00:00,110.38,111.11,107.578,108.21,326199,8006,108.565902,0.011308411214953296,0.036494252873563005,,1.3239942328692496,63.18202506315767,ATR
2022-12-14 05:00:00+00:00,108.44,110.28,107.23,108.24,297871,7750,108.760323,0.018250235183443042,0.03390963797879443,,1.2090150066033194,63.27310514516139,ATR
2022-12-15 05:00:00+00:00,107.7,108.55,107.24,107.65,228311,7090,107.791835,-0.002594274066524571,0.026019824628288335,,0.9266810974301307,60.123037574954594,ATR
2022-12-16 05:00:00+00:00,107.11,108.26,106.39,107.44,538979,8651,107.350615,-0.0057375532111789695,0.0270528630150082,,2.187637263258426,58.997178760617395,ATR
2022-12-19 05:00:00+00:00,107.32,108.36,105.78,106.26,269643,6804,106.722728,-0.016839378238341918,0.0020746887966804906,,1.0944416657732337,52.99231316370101,ATR
2022-12-20 05:00:00+00:00,106.43,108.13,106.27,107.12,193074,6342,107.443271,-0.010073006191664291,0.01883203347917073,,0.7836592464017286,56.46978770802037,ATR
2022-12-21 05:00:00+00:00,107.98,110.64,107.5698,110.64,387832,8998,110.112306,0.022172949002217335,0.04377358490566041,,1.5741536035430725,67.17376257393953,ATR
2022-12-22 05:00:00+00:00,109.5,110.8,107.46,108.56,213642,6216,108.558932,0.008453320947515053,0.022318485733120008,,0.8671417628461527,58.084658239870855,ATR
2022-12-23 05:00:00+00:00,109.14,110.2,108.35,110.01,161313,4835,109.533814,0.02392032762472085,0.038712114059106906,,0.654745973123269,61.949818431227186,ATR
2022-12-27 05:00:00+00:00,109.9,111.02,109.6315,110.87,101293,3597,110.545388,0.04338415207980417,0.0712077294685991,,0.41113353452961193,64.06628649519789,ATR
2022-12-28 05:00:00+00:00,111.06,111.91,109.012,109.17,162015,4653,109.943974,0.019137415982076078,0.05672248572258254,,0.657595288882895,57.28333887349044,ATR
2022-12-29 05:00:00+00:00,109.92,111.17,109.375,110.79,128565,4410,110.700701,0.0013557483731019282,0.04381006218202388,,0.5218266105930277,61.469746864467226,ATR
2022-12-30 05:00:00+00:00,110.5,110.74,109.02,109.98,171725,4996,109.733687,0.013080324244657326,0.026986646745727816,,0.6970067647033616,58.38850159961173,ATR
2023-01-03 05:00:00+00:00,110.58,111.07,109.45,110.26,238523,6261,110.261517,0.002272520679938106,0.020453493752892182,,0.968130118138535,59.15076741262091,ATR
2023-01-04 05:00:00+00:00,111.26,112.21,110.31,111.23,216626,5957,111.178468,0.0032470460900153597,0.04245548266166832,,0.8792533842517422,61.763920370703815,ATR
2023-01-05 05:00:00+00:00,110.64,113.03,109.12,112.12,309248,8222,111.838812,0.027022075661811806,0.047850467289719756,,1.2551925926393082,64.03712380264582,ATR
2023-01-06 05:00:00+00:00,113.38,114.4,112.74,114.06,180437,6161,113.831626,0.029515299214730506,0.07300094073377239,,0.7323675038741038,68.44144035713717,ATR
2023-01-09 05:00:00+00:00,114.63,115.68,113.28,113.33,161842,5696,114.062698,0.030460083651572933,0.050032428425831554,,0.6568931070788846,65.20540315426531,ATR
2023-01-10 05:00:00+00:00,113.19,114.34,112.96,113.43,162998,4395,113.424405,0.02875022673680383,0.049694614103275914,,0.6615851427172429,65.4464210140579,ATR
2023-01-11 05:00:00+00:00,113.58,114.43,113.45,113.46,141308,4808,113.67354,0.020048548053582582,0.049777942264988884,,0.5735485916826474,65.52357627857963,ATR
2023-01-12 05:00:00+00:00,113.69,113.785,112.3961,113.5,179058,4920,113.324084,0.012308241170174705,0.04888642454486658,,0.726770343713813,65.63376266289592,ATR
2023-01-13 05:00:00+00:00,113.21,114.31,113.21,113.97,175904,5040,113.834183,-0.0007890583903209514,0.05293791574279383,,0.7139687170672886,66.96956608458503,ATR
2023-01-17 05:00:00+00:00,114.18,114.53,112.83,114.06,203495,5060,113.753927,0.006441365922527087,0.05954482117974913,,0.8259565676710472,67.23222182469979,ATR
2023-01-18 05:00:00+00:00,114.49,114.6,111.92,111.97,118896,3429,112.720262,-0.01287137441593944,0.04216306775874901,,0.48258154780125717,56.079835430192915,ATR
2023-01-19 05:00:00+00:00,111.59,112.41,110.33,111.99,177398,5290,111.910894,-0.012956107879428913,0.05392433653303219,,0.7200326454788001,56.15478703242031,ATR
2023-01-20 05:00:00+00:00,112.46,113.29,111.6901,113.29,180755,5549,112.642949,-0.0018502202643171373,0.057598954443614625,,0.7336582195600881,60.83353236929301,ATR
2023-01-23 05:00:00+00:00,113.2,113.73,112.46,113.36,165456,4779,113.170647,-0.005352285689216418,0.024584237165582,,0.6715618067302921,61.074401912285005,ATR
2023-01-24 05:00:00+00:00,113.03,113.145,111.76,112.84,172566,5805,112.906235,-0.010696124846572008,0.03942520265291094,,0.700420261218811,58.21049584571819,ATR
2023-01-25 05:00:00+00:00,111.84,112.51,110.488,112.07,181163,5650,111.832953,0.000893096365097712,0.018725570402690517,,0.7353142321383322,54.160502612586306,ATR
2023-01-26 05:00:00+00:00,112.51,112.89,111.82,112.79,139024,4575,112.450492,0.007143494954906737,0.017317579146748363,,0.5642781683279671,57.16181057510775,ATR
2023-01-27 05:00:00+00:00,112.51,112.94,111.855,112.73,204294,5474,112.477929,-0.004943066466590151,0.032609691307135646,,0.8291995923034419,56.82789573128469,ATR
2023-01-30 05:00:00+00:00,111.71,113.329,111.46,113.25,200229,5480,112.900952,-0.000970359915314023,0.02220417005144859,,0.8127003493363774,59.05999944476823,ATR
2023-01-31 05:00:00+00:00,113.83,116.32,113.315,115.64,630904,7969,115.468913,0.02481389578163773,0.051463902527732364,,2.560747450158158,67.4021702936847,ATR
2023-02-01 05:00:00+00:00,114.45,118.0599,114.39,117.09,190891,6070,116.429856,0.04479343267600622,0.061944494830400876,,0.7747987673372508,71.23212628797657,ATR
2023-02-02 05:00:00+00:00,117.09,118.34,116.58,117.3,271605,7006,117.296651,0.0399858143452434,0.05457160837903441,,1.1024051380244957,71.74980759497076,ATR
2023-02-03 05:00:00+00:00,116.59,116.59,115.2125,115.42,284051,6573,115.58184,0.02386232591146986,0.02943275062433104,,1.1529216393696584,61.142167252105295,ATR
2023-02-06 05:00:00+00:00,114.56,115.5,113.44,113.44,180382,5323,113.891716,0.0016777041942603876,-0.00543573557776611,,0.7321442668843895,52.361939271948934,ATR
2023-02-07 05:00:00+00:00,112.67,112.825,110.7101,112.19,189116,6320,111.874316,-0.029833967485299207,-0.010059119385864346,,0.7675943008510172,47.70443534575216,ATR
2023-02-08 05:00:00+00:00,111.72,112.16,110.55,110.56,138779,4435,111.11551,-0.05576906653001967,-0.025301948338182223,,0.5632837490101489,42.4073072136347,ATR
2023-02-09 05:00:00+00:00,111.48,111.81,109.24,109.25,180195,5280,109.843035,-0.06862745098039214,-0.03710558787237783,,0.7313852611193609,38.68905992116124,ATR
2023-02-10 05:00:00+00:00,109.0,109.22,107.885,109.21,217891,6987,108.746075,-0.05380350025992031,-0.03779735682819385,,0.8843878350151706,38.57783328961696,ATR
2023-02-13 05:00:00+00:00,109.4,110.54,109.25,109.8,184949,4940,109.906609,-0.03208744710860367,-0.03658857594103715,,0.7506810547393916,41.260268661476296,ATR
2023-02-14 05:00:00+00:00,109.8,111.2,109.6589,109.76,122473,4251,110.177537,-0.02165968446385591,-0.037699456426442235,,0.4971000698414023,41.12912531205302,ATR
2023-02-15 05:00:00+00:00,108.82,110.4,108.57,110.39,155197,5039,109.935166,-0.001537626628075217,-0.014110922568545181,-0.037576285963382805,0.629922019867041,44.14057704269576,ATR
